Time (s), Temperature (C)
0.00,24.30
60.00,24.30
120.00,24.30
180.00,24.30
240.00,24.30
300.00,24.30
315.00,24.31
330.00,24.45
345.00,24.66
360.00,24.88
375.00,25.08
390.00,25.25
405.00,25.39
420.00,25.49
435.00,25.58
450.00,25.64
465.00,25.69
480.00,25.73
540.00,25.81
600.00,25.83
660.00,25.83
720.00,25.83
780.00,25.82
840.00,25.82
900.00,25.82
960.00,25.81
1020.00,25.81
1080.00,25.81
